#    lambda(um)    25              30              35              40              45              50
       1.0000  0.001362151334  0.001359224469  0.001373186296  0.001384165613  0.001391793048  0.001021032912
       1.0090  0.001680663481  0.001677038211  0.001694190658  0.001707678864  0.001717049243  0.001266992583
       1.0190  0.002159182531  0.002154410037  0.002176377845  0.002193652609  0.002205653571  0.001637000006
       1.0280  0.002868413756  0.002862152870  0.002891206636  0.002914053845  0.002929926036  0.002185555763
       1.0380  0.003779856907  0.003772967902  0.003810776482  0.003840508263  0.003861163301  0.002891158863
       1.0470  0.004558945493  0.004548703131  0.004594476103  0.004630470411  0.004655476290  0.003493287491
       1.0570  0.004647732148  0.004638635381  0.004685775878  0.004722846301  0.004748599586  0.003562379312
       1.0670  0.004101710978  0.004092057352  0.004133683346  0.004166417023  0.004189157488  0.003138559104
       1.0760  0.003421458769  0.003413907485  0.003449107024  0.003476787152  0.003496016903  0.002610937686
       1.0860  0.002876344506  0.002869935103  0.002899920687  0.002923500596  0.002939881886  0.002188102997
       1.0960  0.002501664854  0.002496153330  0.002522546375  0.002543301030  0.002557719536  0.001897339023
       1.1070  0.002257611446  0.002252530011  0.002276687365  0.002295683944  0.002308881312  0.001707759613
       1.1170  0.002109956390  0.002105257355  0.002128063825  0.002145998347  0.002158457834  0.001592721386
       1.1270  0.002029919549  0.002025244128  0.002047401214  0.002064825242  0.002076929843  0.001530076655
       1.1380  0.001999736334  0.001995085656  0.002017132970  0.002034470599  0.002046515156  0.001506190099
       1.1480  0.002014351223  0.002009405654  0.002031728352  0.002049282123  0.002061477018  0.001516587654
       1.1590  0.002065980563  0.002061155440  0.002084174387  0.002102275959  0.002114851539  0.001556199922
       1.1690  0.002159115490  0.002153988964  0.002178111673  0.002197081054  0.002210259575  0.001627776210
       1.1800  0.002292873780  0.002287629989  0.002313277321  0.002333445702  0.002347457044  0.001731093454
       1.1910  0.002474421280  0.002468592472  0.002496293166  0.002518076135  0.002533209231  0.001871196754
       1.2020  0.002708653484  0.002702241990  0.002732529677  0.002756347014  0.002772893356  0.002052112564
       1.2130  0.002997175751  0.002990438156  0.003024050890  0.003050483260  0.003068845870  0.002275226454
       1.2250  0.003328982053  0.003321349521  0.003358581496  0.003387859734  0.003408199567  0.002531946369
       1.2360  0.003682530924  0.003673157620  0.003714202154  0.003746478403  0.003768901073  0.002805214023
       1.2470  0.004006795750  0.003997971567  0.004042449827  0.004077426749  0.004101725263  0.003056081929
       1.2590  0.004236423239  0.004226603550  0.004273930091  0.004311146313  0.004337000595  0.003233448452
       1.2710  0.004330882558  0.004320526044  0.004369200020  0.004407476007  0.004434066483  0.003306624877
       1.2820  0.004291016562  0.004280721633  0.004328979895  0.004366928784  0.004393292381  0.003275556879
       1.2940  0.004145050326  0.004136356896  0.004183386985  0.004220370451  0.004246062993  0.003162860119
       1.3060  0.003948070211  0.003938355215  0.003983632779  0.004019237298  0.004043972395  0.003008593747
       1.3180  0.003737637153  0.003727516432  0.003771119218  0.003805407176  0.003829227426  0.002844184312
       1.3300  0.003539134108  0.003530864727  0.003572446498  0.003605145470  0.003627861804  0.002690491337
       1.3430  0.003363894891  0.003355028143  0.003395226968  0.003426838094  0.003448798889  0.002554679638
       1.3550  0.003218245815  0.003209366139  0.003248508998  0.003279289904  0.003300673660  0.002441302620
       1.3680  0.003097089243  0.003089964031  0.003127630309  0.003157249998  0.003177827204  0.002347236483
       1.3800  0.003002000270  0.002994665164  0.003031857285  0.003061104007  0.003081421970  0.002272950950
       1.3930  0.002924790506  0.002917084129  0.002953731887  0.002982550547  0.003002571375  0.002212682916
       1.4060  0.002864472854  0.002856804991  0.002893201967  0.002921823519  0.002941707389  0.002165669904
       1.4190  0.002818439138  0.002810357171  0.002846472148  0.002874871665  0.002894601338  0.002129569865
       1.4320  0.002784225772  0.002775287560  0.002811417846  0.002839829775  0.002859567990  0.002102808162
       1.4450  0.002759896534  0.002751288585  0.002787724037  0.002816376073  0.002836280912  0.002083680471
       1.4590  0.002742080050  0.002734882444  0.002770933751  0.002799283477  0.002818978509  0.002069464826
       1.4720  0.002733346742  0.002724382534  0.002761011850  0.002789816094  0.002809826743  0.002062487325
       1.4860  0.002728379980  0.002721539515  0.002758374410  0.002787340114  0.002807463174  0.002058676129
       1.5000  0.002729030039  0.002721582683  0.002758918602  0.002788278816  0.002808675628  0.002058843982
       1.5140  0.002733815181  0.002725974445  0.002763485638  0.002792983303  0.002813475510  0.002062323820
       1.5280  0.002742154722  0.002733485216  0.002771763056  0.002801863820  0.002822775046  0.002068755218
       1.5420  0.002753849587  0.002745130133  0.002783849339  0.002814297307  0.002835449894  0.002077846435
       1.5560  0.002768450640  0.002761208146  0.002800347980  0.002831126375  0.002852508671  0.002089070338
       1.5700  0.002785424230  0.002777405132  0.002817250794  0.002848584518  0.002870352277  0.002102143569
       1.5850  0.002802718590  0.002793838349  0.002834344993  0.002866198260  0.002888327087  0.002115565719
       1.6000  0.002821602033  0.002812220843  0.002853369591  0.002885727720  0.002908207591  0.002130646062
       1.6140  0.002844006844  0.002834247433  0.002876046314  0.002908915961  0.002931750768  0.002147038391
       1.6290  0.002865589492  0.002856364771  0.002898770100  0.002932116408  0.002955282451  0.002164675601
       1.6440  0.002888205443  0.002878466280  0.002921746493  0.002955780861  0.002979425045  0.002181124170
       1.6600  0.002908664700  0.002898426909  0.002942539249  0.002977227981  0.003001326838  0.002197404148
       1.6750  0.002930476457  0.002921517726  0.002966192923  0.003001324283  0.003025730366  0.002214884546
       1.6900  0.002952442567  0.002944198518  0.002989426778  0.003024992838  0.003049701015  0.002233090161
       1.7060  0.002973842712  0.002963004105  0.003009023695  0.003045212180  0.003070352649  0.002248443138
       1.7220  0.002990692656  0.002981459294  0.003028255760  0.003065055015  0.003090620083  0.002262847530
       1.7380  0.003006704876  0.002997496775  0.003045061486  0.003082464978  0.003108449746  0.002275979465
       1.7540  0.003019864221  0.003010818753  0.003058881376  0.003096676750  0.003122933595  0.002285921112
       1.7700  0.003027709664  0.003018137656  0.003066966394  0.003105364117  0.003132039479  0.002292599360
       1.7860  0.003029871234  0.003019258133  0.003068856463  0.003107859315  0.003134955282  0.002293203705
       1.8030  0.003020860793  0.003009967938  0.003059806479  0.003098998451  0.003126225422  0.002286631821
       1.8200  0.002999174825  0.002988943555  0.003039051625  0.003078455289  0.003105829552  0.002271340394
       1.8370  0.002964666411  0.002954197071  0.003004358355  0.003043803730  0.003071206999  0.002244755015
       1.8540  0.002916254278  0.002906450489  0.002956702454  0.002996219330  0.003023672084  0.002207186040
       1.8710  0.002861518925  0.002851508506  0.002901625757  0.002941036470  0.002968415533  0.002165488235
       1.8880  0.002819665147  0.002809372200  0.002859567993  0.002899040635  0.002926462878  0.002132050513
       1.9050  0.002810654676  0.002801224964  0.002852130952  0.002892162138  0.002919972376  0.002127267671
       1.9230  0.002852692082  0.002841273413  0.002893190017  0.002934015891  0.002962378075  0.002159475714
       1.9410  0.002937493724  0.002926225351  0.002979718100  0.003021783355  0.003051006673  0.002225928682
       1.9590  0.003044133713  0.003032718314  0.003088400001  0.003132186585  0.003162605606  0.002310230869
       1.9770  0.003155647769  0.003142753092  0.003200568287  0.003246032413  0.003277617093  0.002397551194
       1.9950  0.003260646513  0.003246861389  0.003306551168  0.003353489796  0.003386098566  0.002478783179
       2.0140  0.003353180489  0.003340275582  0.003401796004  0.003450174027  0.003483782939  0.002552015772
       2.0320  0.003437283585  0.003424739704  0.003488113491  0.003537948761  0.003572569870  0.002619131133
       2.0510  0.003512924289  0.003498970742  0.003564152787  0.003615410197  0.003651019324  0.002678440132
       2.0700  0.003580666672  0.003568041784  0.003634786435  0.003687272954  0.003723735746  0.002732447531
       2.0890  0.003644587127  0.003630668065  0.003698962034  0.003752666707  0.003789975938  0.002782859510
       2.1090  0.003701776563  0.003687296031  0.003757305620  0.003812359345  0.003850605851  0.002828569262
       2.1280  0.003757973070  0.003742617932  0.003814133500  0.003870371593  0.003909440771  0.002873101003
       2.1480  0.003810550352  0.003795196503  0.003868157341  0.003925531420  0.003965390473  0.002915490035
       2.1680  0.003860508283  0.003845139196  0.003919523401  0.003978016921  0.004018653035  0.002955462007
       2.1880  0.003909553040  0.003893100958  0.003969307120  0.004029233692  0.004070865252  0.002995448599
       2.2080  0.003958123971  0.003941251767  0.004018826082  0.004079828065  0.004122207332  0.003034838626
       2.2280  0.004005411519  0.003988823974  0.004067948035  0.004130169307  0.004173394992  0.003072662344
       2.2490  0.004050874324  0.004034042899  0.004114857857  0.004178408357  0.004222557324  0.003110134798
       2.2700  0.004096667973  0.004079735166  0.004162002119  0.004226694638  0.004271637424  0.003146789738
       2.2910  0.004142421331  0.004124868397  0.004208761954  0.004274733383  0.004320564508  0.003184443007
       2.3120  0.004187343699  0.004169457025  0.004255146203  0.004322529709  0.004369341832  0.003222117409
       2.3330  0.004233382935  0.004216339715  0.004303783521  0.004372546962  0.004420317723  0.003259934014
       2.3550  0.004278693644  0.004260579067  0.004349707703  0.004419796637  0.004468487879  0.003297183329
       2.3770  0.004325056039  0.004305787223  0.004396758997  0.004468297276  0.004517995603  0.003334548081
       2.3990  0.004371332041  0.004351672207  0.004444449385  0.004517407194  0.004568091643  0.003372705571
       2.4210  0.004418243885  0.004398478487  0.004493213790  0.004567711258  0.004619465173  0.003411632977
       2.4430  0.004466523585  0.004445919211  0.004542573043  0.004618579423  0.004671381842  0.003452876523
       2.4660  0.004514308569  0.004493883607  0.004592559858  0.004670156214  0.004724063507  0.003492631741
       2.4890  0.004561209946  0.004541217722  0.004642063524  0.004721366259  0.004776458976  0.003532420436
       2.5120  0.004610828209  0.004589122027  0.004692094524  0.004773068699  0.004829323084  0.003573653560
       2.5350  0.004660269733  0.004637834470  0.004743071016  0.004825826516  0.004883317998  0.003615536458
       2.5590  0.004708740205  0.004686665964  0.004794076266  0.004878541415  0.004937220191  0.003657372745
       2.5820  0.004761627576  0.004738312500  0.004848251317  0.004934704054  0.004994764265  0.003702606890
       2.6060  0.004813813057  0.004789984964  0.004902356413  0.004990722268  0.005052111318  0.003747075685
       2.6300  0.004868461169  0.004843703295  0.004958629830  0.005049004717  0.005111789651  0.003793427558
       2.6550  0.004922998344  0.004898690435  0.005016069652  0.005108373510  0.005172498473  0.003840888625
       2.6790  0.004981725138  0.004956797586  0.005077312071  0.005172081285  0.005237918767  0.003891664630
       2.7040  0.005042532406  0.005017129091  0.005140491108  0.005237500329  0.005304893425  0.003944723534
       2.7290  0.005106524077  0.005080793084  0.005207276891  0.005306740778  0.005375839421  0.004000109757
       2.7540  0.005175878513  0.005149010524  0.005278878740  0.005381003568  0.005451951174  0.004060332512
       2.7800  0.005249224060  0.005221082629  0.005354538320  0.005459484308  0.005532391726  0.004123194653
       2.8050  0.005330163165  0.005301883123  0.005439215396  0.005547209267  0.005622234318  0.004194062768
       2.8310  0.005418255227  0.005388964849  0.005530516469  0.005641828802  0.005719158703  0.004270463429
       2.8580  0.005514464189  0.005484593735  0.005630687444  0.005745571122  0.005825382845  0.004353976643
       2.8840  0.005627342425  0.005596055585  0.005747094576  0.005865867593  0.005948380893  0.004450513313
       2.9110  0.005755696412  0.005723056973  0.005879478539  0.006002484116  0.006087937897  0.004560446642
       2.9380  0.005906495483  0.005872603099  0.006035337617  0.006163307296  0.006252210051  0.004689616146
       2.9650  0.006089732261  0.006054825820  0.006224592255  0.006358091802  0.006450835611  0.004844214654
       2.9920  0.006317149788  0.006280556879  0.006458639044  0.006598678002  0.006695964607  0.005034949113
       3.0200  0.006605632265  0.006566236225  0.006754223457  0.006902051221  0.007004749566  0.005276176228
       3.0480  0.006988241862  0.006946629426  0.007146934301  0.007304448896  0.007413876327  0.005592789889
       3.0760  0.007516200849  0.007471510083  0.007687682322  0.007857674908  0.007975770898  0.006026795533
       3.1050  0.008282257592  0.008233640983  0.008471602434  0.008658728720  0.008788727769  0.006652830672
       3.1330  0.009476139168  0.009420264460  0.009690101748  0.009902294690  0.010049707400  0.007620939905
       3.1620  0.011486123372  0.011418843378  0.011739137353  0.011991007565  0.012165985370  0.009245409996
       3.1920  0.015296810968  0.015206968435  0.015621693386  0.015947819969  0.016174386351  0.012311340768
       3.2210  0.023925060643  0.023794049623  0.024415398195  0.024904009013  0.025243452415  0.019241474881
       3.2510  0.049971996199  0.049711974340  0.050949425816  0.051922519154  0.052598543276  0.040140848423
       3.2810  0.174642088506  0.173797538490  0.177976331516  0.181262432578  0.183545324149  0.140106599269
       3.3110  0.255783378321  0.254485326061  0.260610375978  0.265426931646  0.268773066497  0.205253194349
       3.3420  0.067750918945  0.067401213527  0.069098079277  0.070432443256  0.071359442383  0.054505596641
       3.3730  0.029841342574  0.029682913742  0.030489205483  0.031123253193  0.031563733865  0.024123268585
       3.4040  0.018411832062  0.018298342966  0.018841228207  0.019268137781  0.019564718663  0.014969459034
       3.4360  0.013632758773  0.013542742421  0.013977996065  0.014320268108  0.014558048816  0.011161821657
       3.4670  0.011221058883  0.011143165259  0.011530371407  0.011834859781  0.012046392803  0.009252722314
       3.4990  0.009850075275  0.009774873802  0.010137577245  0.010422796666  0.010620942649  0.008181240214
       3.5320  0.009006909995  0.008932872366  0.009283849946  0.009559849404  0.009751589556  0.007533949172
       3.5650  0.008461869659  0.008389205425  0.008737455566  0.009011310306  0.009201561073  0.007127849893
       3.5970  0.008099548108  0.008027931319  0.008377868434  0.008653049454  0.008844221998  0.006871426413
       3.6310  0.007850816287  0.007776829905  0.008131229401  0.008409919772  0.008603529391  0.006707073674
       3.6640  0.007683655557  0.007608291452  0.007970482288  0.008255298984  0.008453165453  0.006610762113
       3.6980  0.007570966615  0.007493842476  0.007865806996  0.008158310001  0.008361515531  0.006560069711
       3.7330  0.007496666002  0.007418321989  0.007801153590  0.008102202068  0.008311344580  0.006542833873
       3.7670  0.007457009446  0.007374242752  0.007769357924  0.008080065695  0.008295919089  0.006555894090
       3.8020  0.007439331783  0.007356187603  0.007766339357  0.008088872231  0.008312939676  0.006588956523
       3.8370  0.007441925484  0.007354964913  0.007780193748  0.008114581515  0.008346885354  0.006640832767
       3.8730  0.007459996064  0.007369093834  0.007810632843  0.008157846891  0.008399061413  0.006707450196
       3.9080  0.007493037881  0.007398007274  0.007856462698  0.008216979823  0.008467435620  0.006790495334
       3.9450  0.007536298312  0.007438161906  0.007916225324  0.008292161537  0.008553330132  0.006882493086
       3.9810  0.007591318306  0.007488519406  0.007985925808  0.008377072454  0.008648807600  0.006988864042
       4.0180  0.007654902454  0.007548264812  0.008066801891  0.008474565283  0.008757844881  0.007104405958
       4.0550  0.007729354866  0.007616667524  0.008157174855  0.008582215289  0.008877496611  0.007229149968
       4.0930  0.007809580737  0.007693171997  0.008257451243  0.008701185277  0.009009453673  0.007366657992
       4.1300  0.007899871138  0.007779718195  0.008368677812  0.008831818801  0.009153569708  0.007515480269
       4.1690  0.007998186948  0.007869725842  0.008483935388  0.008966934135  0.009302478644  0.007669906639
       4.2070  0.008104730713  0.007972382909  0.008614894746  0.009120147505  0.009471154520  0.007839298973
       4.2460  0.008218488242  0.008079809014  0.008749933051  0.009276899671  0.009642991085  0.008015861343
       4.2850  0.008342433700  0.008198867533  0.008899187245  0.009449899861  0.009832487551  0.008205270535
       4.3250  0.008476811585  0.008325161244  0.009057065251  0.009632615387  0.010032457461  0.008405991366
       4.3650  0.008617380166  0.008461017042  0.009225903244  0.009827389849  0.010245249984  0.008614789718
       4.4060  0.008770655473  0.008605574875  0.009404407210  0.010032587463  0.010468992796  0.008839238748
       4.4460  0.008936081433  0.008765207725  0.009600099317  0.010256634663  0.010712738146  0.009077798760
       4.4870  0.009115058833  0.008935636226  0.009808275582  0.010494495962  0.010971222409  0.009331815738
       4.5290  0.009305080562  0.009117766567  0.010029568381  0.010746583945  0.011244704499  0.009600699231
       4.5710  0.009512144756  0.009312541670  0.010265163683  0.011014279202  0.011534700034  0.009886737846
       4.6130  0.009737337333  0.009534633589  0.010529746578  0.011312276139  0.011855910867  0.010190171861
       4.6560  0.009980330063  0.009763861082  0.010804405250  0.011622660407  0.012191112778  0.010517541619
       4.6990  0.010249600251  0.010023714382  0.011111706028  0.011967272812  0.012561646434  0.010867613455
       4.7420  0.010546269204  0.010313357154  0.011450758560  0.012345180163  0.012966546983  0.011245176225
       4.7860  0.010875644140  0.010631102379  0.011820536165  0.012755874545  0.013405666014  0.011657442700
       4.8310  0.011248558211  0.010992255419  0.012237148867  0.013216098352  0.013896187366  0.012106580073
       4.8750  0.011676843705  0.011413575271  0.012716776323  0.013741577643  0.014453520420  0.012612246406
       4.9200  0.012186081426  0.011907445886  0.013273968797  0.014348565183  0.015095101681  0.013187175039
       4.9660  0.012804997096  0.012509248218  0.013944757305  0.015073602352  0.015857825501  0.013854399447
       5.0120  0.013590330054  0.013278482982  0.014790416706  0.015979360971  0.016805335056  0.014674852653
       5.0580  0.014653168455  0.014325267895  0.015926013763  0.017184797938  0.018059290872  0.015729004649
       5.1050  0.016231218984  0.015877940532  0.017587587185  0.018932007443  0.019865993938  0.017222019910
       5.1520  0.018798590387  0.018415187095  0.020271888942  0.021731948761  0.022746273672  0.019552420980
       5.2000  0.023166625390  0.022735575353  0.024811001404  0.026443060710  0.027576874982  0.023400229507
